 # 2site DOS and GIPR created by main.f90 with subroutines in routines.f90
 #
# parameters: U =  4.00  t = -1.00  W = 12.00
# nbins = 600     ensemble size =    10000000
 #
 # Filling:  0.405568182    
 # Filling Error:   4.36231354E-03
 #
 #  Frequency           DOS            GIPR
  -12.0000000       7.05917191E-05   1.07387352    
  -11.9600000       7.30937027E-05   1.06436455    
  -11.9200001       7.58759707E-05   1.06382430    
  -11.8800001       7.78908798E-05   1.05627239    
  -11.8400002       8.03180010E-05   1.07154441    
  -11.8000002       8.33467639E-05   1.07018614    
  -11.7600002       8.59908832E-05   1.07330179    
  -11.7200003       8.87513379E-05   1.06673622    
  -11.6800003       9.12314863E-05   1.06476450    
  -11.6400003       9.39266392E-05   1.05818260    
  -11.6000004       9.73904098E-05   1.06585801    
  -11.5600004       1.00646015E-04   1.05676234    
  -11.5200005       1.04752748E-04   1.05043852    
  -11.4800005       1.07804401E-04   1.05045080    
  -11.4400005       1.11558409E-04   1.05857062    
  -11.4000006       1.14116476E-04   1.04556525    
  -11.3600006       1.19525568E-04   1.05024076    
  -11.3200006       1.22689249E-04   1.05175579    
  -11.2800007       1.27284831E-04   1.04923916    
  -11.2400007       1.32344343E-04   1.04896867    
  -11.2000008       1.35839378E-04   1.04557800    
  -11.1600008       1.41391662E-04   1.04823375    
  -11.1200008       1.44535123E-04   1.03366935    
  -11.0800009       1.49243482E-04   1.04189801    
  -11.0400009       1.55666406E-04   1.04028893    
  -11.0000010       1.61210861E-04   1.03721559    
  -10.9600010       1.67212886E-04   1.03457129    
  -10.9200010       1.71609747E-04   1.03493679    
  -10.8800011       1.77695241E-04   1.03614986    
  -10.8400011       1.84284974E-04   1.03277528    
  -10.8000011       1.89432511E-04   1.03498805    
  -10.7600012       1.96774621E-04   1.03390801    
  -10.7200012       2.01749674E-04   1.02842057    
  -10.6800013       2.11718158E-04   1.03357160    
  -10.6400013       2.17821595E-04   1.02845681    
  -10.6000013       2.23349693E-04   1.02596521    
  -10.5600014       2.31000129E-04   1.02981138    
  -10.5200014       2.41043817E-04   1.02570999    
  -10.4800014       2.48859695E-04   1.02453899    
  -10.4400015       2.58518237E-04   1.02562034    
  -10.4000015       2.67734082E-04   1.02898216    
  -10.3600016       2.78157968E-04   1.01973808    
  -10.3200016       2.87566159E-04   1.02594697    
  -10.2800016       2.98588362E-04   1.02813482    
  -10.2400017       3.04028334E-04   1.01642787    
  -10.2000017       3.16153019E-04   1.02278066    
  -10.1600018       3.30750307E-04   1.01853681    
  -10.1200018       3.39600781E-04   1.01717412    
  -10.0800018       3.56554840E-04   1.01429653    
  -10.0400019       3.69710178E-04   1.01801383    
  -10.0000019       3.81640595E-04   1.01592338    
  -9.96000195       3.98359320E-04   1.01529574    
  -9.92000198       4.07976360E-04   1.01277149    
  -9.88000202       4.11513203E-04   1.01345289    
  -9.84000206       4.21058619E-04   1.01591253    
  -9.80000210       4.29169741E-04   1.01220965    
  -9.76000214       4.40230768E-04   1.01177204    
  -9.72000217       4.44632140E-04   1.01237190    
  -9.68000221       4.48333973E-04   1.01335192    
  -9.64000225       4.56937647E-04   1.01511037    
  -9.60000229       4.64359124E-04   1.02178717    
  -9.56000233       4.67611884E-04   1.01969945    
  -9.52000237       4.77977301E-04   1.02368200    
  -9.48000240       4.94201726E-04   1.02429855    
  -9.44000244       4.99823596E-04   1.02850187    
  -9.40000248       5.10628277E-04   1.02742827    
  -9.36000252       5.13258914E-04   1.02643323    
  -9.32000256       5.20761707E-04   1.02360272    
  -9.28000259       5.29266428E-04   1.02484274    
  -9.24000263       5.44053386E-04   1.02446806    
  -9.20000267       5.47056959E-04   1.02258193    
  -9.16000271       5.59268927E-04   1.02425587    
  -9.12000275       5.74029982E-04   1.02050483    
  -9.08000278       5.79495449E-04   1.02067363    
  -9.04000282       5.90014039E-04   1.01981878    
  -9.00000286       5.93311503E-04   1.01999009    
  -8.96000290       6.06879184E-04   1.01728642    
  -8.92000294       6.19555009E-04   1.01725435    
  -8.88000298       6.30686758E-04   1.01626682    
  -8.84000301       6.36462588E-04   1.01481378    
  -8.80000305       6.45520922E-04   1.01526058    
  -8.76000309       6.66716136E-04   1.01381862    
  -8.72000313       6.80326484E-04   1.01318324    
  -8.68000317       6.87748659E-04   1.01383877    
  -8.64000320       6.98114512E-04   1.01329720    
  -8.60000324       6.98267599E-04   1.01175380    
  -8.56000328       7.23948586E-04   1.01046002    
  -8.52000332       7.33042543E-04   1.01033890    
  -8.48000336       7.56137888E-04   1.01013505    
  -8.44000340       7.62024079E-04   1.00961185    
  -8.40000343       7.65299075E-04   1.00884128    
  -8.36000347       7.94834341E-04   1.00856078    
  -8.32000351       7.96185574E-04   1.00792408    
  -8.28000355       8.20092682E-04   1.00762057    
  -8.24000359       8.40740628E-04   1.00741935    
  -8.20000362       8.49672593E-04   1.00701261    
  -8.16000366       8.69880139E-04   1.00657392    
  -8.12000370       8.86916881E-04   1.00643730    
  -8.08000374       9.04627843E-04   1.00662279    
  -8.04000378       9.26605600E-04   1.00527442    
  -8.00000381       9.47787543E-04   1.00534475    
  -7.96000385       9.50699730E-04   1.00499618    
  -7.92000389       9.93626891E-04   1.00465071    
  -7.88000393       1.00031437E-03   1.00429583    
  -7.84000397       1.01686455E-03   1.00346601    
  -7.80000401       1.03326165E-03   1.00318360    
  -7.76000404       1.06742175E-03   1.00249279    
  -7.72000408       1.08916406E-03   1.00264752    
  -7.68000412       1.12567504E-03   1.00214577    
  -7.64000416       1.13547069E-03   1.00154495    
  -7.60000420       1.16944045E-03   1.00101936    
  -7.56000423       1.19602820E-03   1.00061119    
  -7.52000427       1.20895542E-03   1.00044680    
  -7.48000431       1.25955697E-03  0.999960124    
  -7.44000435       1.28393504E-03  0.999038756    
  -7.40000439       1.31842261E-03  0.998367369    
  -7.36000443       1.31097005E-03  0.997787952    
  -7.32000446       1.36688468E-03  0.997108579    
  -7.28000450       1.39911997E-03  0.996229529    
  -7.24000454       1.43847615E-03  0.995593786    
  -7.20000458       1.46527332E-03  0.994167447    
  -7.16000462       1.51951541E-03  0.993012786    
  -7.12000465       1.53920287E-03  0.991493285    
  -7.08000469       1.59824430E-03  0.990005493    
  -7.04000473       1.64823967E-03  0.988172114    
  -7.00000477       1.69063243E-03  0.985490918    
  -6.96000481       1.74596976E-03  0.981866837    
  -6.92000484       1.81930955E-03  0.976828218    
  -6.88000488       1.86765776E-03  0.969102859    
  -6.84000492       1.94924418E-03  0.955534637    
  -6.80000496       2.01892108E-03  0.953726172    
  -6.76000500       2.06212979E-03  0.953778207    
  -6.72000504       2.06831517E-03  0.954043269    
  -6.68000507       2.11892719E-03  0.954888225    
  -6.64000511       2.14987434E-03  0.954686522    
  -6.60000515       2.19664047E-03  0.953426838    
  -6.56000519       2.21857755E-03  0.956070006    
  -6.52000523       2.28534988E-03  0.956974626    
  -6.48000526       2.34200805E-03  0.956841469    
  -6.44000530       2.39050109E-03  0.958325624    
  -6.40000534       2.42006266E-03  0.959293365    
  -6.36000538       2.51922477E-03  0.960363388    
  -6.32000542       2.58174585E-03  0.960432589    
  -6.28000546       2.57484894E-03  0.960099459    
  -6.24000549       2.66667153E-03  0.961144447    
  -6.20000553       2.77388282E-03  0.961782396    
  -6.16000557       2.84690247E-03  0.963128030    
  -6.12000561       2.91334162E-03  0.961495221    
  -6.08000565       3.00608086E-03  0.963331163    
  -6.04000568       3.12131410E-03  0.962872446    
  -6.00000572       3.49044683E-03  0.929010332    
  -5.96000576       3.89923924E-03  0.902542591    
  -5.92000580       4.14402084E-03  0.893138766    
  -5.88000584       4.44380054E-03  0.883933783    
  -5.84000587       4.81195375E-03  0.877798975    
  -5.80000591       5.16253756E-03  0.869463086    
  -5.76000595       5.63055510E-03  0.859257698    
  -5.72000599       6.11354643E-03  0.848008811    
  -5.68000603       6.89076912E-03  0.826245487    
  -5.64000607       7.26196542E-03  0.814290762    
  -5.60000610       7.58337509E-03  0.811410725    
  -5.56000614       7.81472120E-03  0.807962179    
  -5.52000618       8.19821563E-03  0.804256082    
  -5.48000622       8.91106948E-03  0.798409462    
  -5.44000626       1.01248715E-02  0.789198160    
  -5.40000629       1.01726791E-02  0.787151515    
  -5.36000633       1.01844724E-02  0.785055518    
  -5.32000637       1.02769844E-02  0.784526050    
  -5.28000641       1.04792677E-02  0.782158732    
  -5.24000645       1.04231695E-02  0.781147242    
  -5.20000648       1.05125392E-02  0.779362142    
  -5.16000652       1.06843617E-02  0.777158856    
  -5.12000656       1.08205639E-02  0.775872886    
  -5.08000660       1.07972343E-02  0.773296535    
  -5.04000664       1.09238112E-02  0.771678746    
  -5.00000668       1.10472543E-02  0.769311249    
  -4.96000671       1.11605804E-02  0.766993761    
  -4.92000675       1.11444369E-02  0.766462326    
  -4.88000679       1.13579277E-02  0.763054669    
  -4.84000683       1.12893879E-02  0.763055623    
  -4.80000687       1.11031393E-02  0.766758442    
  -4.76000690       1.09291393E-02  0.767372668    
  -4.72000694       1.09924320E-02  0.766070366    
  -4.68000698       1.09620756E-02  0.766055763    
  -4.64000702       1.09813642E-02  0.762459040    
  -4.60000706       1.08240033E-02  0.761489511    
  -4.56000710       1.09930830E-02  0.759536386    
  -4.52000713       1.09870164E-02  0.755947649    
  -4.48000717       1.09494198E-02  0.753611088    
  -4.44000721       1.09132444E-02  0.750964165    
  -4.40000725       1.09164240E-02  0.748025715    
  -4.36000729       1.09479437E-02  0.742500365    
  -4.32000732       1.08292885E-02  0.740623176    
  -4.28000736       1.08985193E-02  0.736048162    
  -4.24000740       1.08555639E-02  0.732703924    
  -4.20000744       1.09111285E-02  0.728720665    
  -4.16000748       1.09729217E-02  0.722353339    
  -4.12000751       1.10231005E-02  0.718324482    
  -4.08000755       1.09554119E-02  0.715416729    
  -4.04000759       1.08906161E-02  0.709870875    
  -4.00000763       1.09860329E-02  0.704456806    
  -3.96000767       1.09460102E-02  0.698778570    
  -3.92000771       1.09737078E-02  0.693170071    
  -3.88000774       1.10215638E-02  0.688899398    
  -3.84000778       1.22269252E-02  0.711162806    
  -3.80000782       1.47567252E-02  0.741360903    
  -3.76000786       1.69203077E-02  0.751304090    
  -3.72000790       1.90306250E-02  0.754699945    
  -3.68000793       2.08760705E-02  0.747917235    
  -3.64000797       2.45343000E-02  0.726401448    
  -3.60000801       2.75110863E-02  0.714052320    
  -3.56000805       3.01810838E-02  0.706890941    
  -3.52000809       3.25203575E-02  0.700166702    
  -3.48000813       3.43831070E-02  0.694232523    
  -3.44000816       3.63268182E-02  0.690336764    
  -3.40000820       3.77705730E-02  0.688718557    
  -3.36000824       4.01654467E-02  0.687023699    
  -3.32000828       4.42857035E-02  0.692285836    
  -3.28000832       4.87064123E-02  0.699175358    
  -3.24000835       5.35383411E-02  0.705059350    
  -3.20000839       5.85812666E-02  0.715286493    
  -3.16000843       6.47254214E-02  0.725366592    
  -3.12000847       7.13086501E-02  0.737378657    
  -3.08000851       8.01027268E-02  0.752597988    
  -3.04000854       9.08976123E-02  0.770274997    
  -3.00000858      0.104728110      0.794314384    
  -2.96000862      0.115041412      0.806083322    
  -2.92000866      0.114864521      0.804882944    
  -2.88000870      0.114540771      0.803196907    
  -2.84000874      0.114250451      0.803533554    
  -2.80000877      0.113700390      0.802711666    
  -2.76000881      0.115348473      0.799036324    
  -2.72000885      0.115538336      0.796667755    
  -2.68000889      0.116987124      0.792235732    
  -2.64000893      0.118679360      0.787494481    
  -2.60000896      0.122584663      0.777223706    
  -2.56000900      0.123984553      0.773336828    
  -2.52000904      0.123149253      0.772705972    
  -2.48000908      0.122370653      0.771680057    
  -2.44000912      0.121139646      0.771728516    
  -2.40000916      0.121468492      0.770448208    
  -2.36000919      0.120449141      0.769418001    
  -2.32000923      0.120264038      0.767733335    
  -2.28000927      0.119272783      0.768401980    
  -2.24000931      0.118524976      0.767108083    
  -2.20000935      0.117279582      0.766470194    
  -2.16000938      0.116928846      0.764728487    
  -2.12000942      0.116358362      0.763955295    
  -2.08000946      0.115956470      0.762682378    
  -2.04000950      0.115477242      0.761808634    
  -2.00000954      0.114708714      0.761197507    
  -1.96000957      0.114884511      0.758052170    
  -1.92000961      0.114570767      0.755967021    
  -1.88000965      0.115185060      0.752836347    
  -1.84000969      0.114696443      0.751052558    
  -1.80000973      0.115288898      0.747396350    
  -1.76000977      0.115115568      0.743557155    
  -1.72000980      0.115710534      0.741636872    
  -1.68000984      0.115706205      0.737899363    
  -1.64000988      0.116570204      0.733571768    
  -1.60000992      0.116358861      0.730455637    
  -1.56000996      0.117186718      0.728125513    
  -1.52000999      0.117054977      0.723603129    
  -1.48001003      0.117514960      0.721111476    
  -1.44001007      0.118258469      0.717983663    
  -1.40001011      0.118030496      0.714891136    
  -1.36001015      0.118729033      0.710604012    
  -1.32001019      0.119323134      0.707979500    
  -1.28001022      0.119834445      0.703810453    
  -1.24001026      0.120297238      0.698512256    
  -1.20001030      0.121533759      0.695470333    
  -1.16001034      0.121918127      0.691205323    
  -1.12001038      0.121172510      0.688088000    
  -1.08001041      0.119998135      0.686433077    
  -1.04001045      0.120248437      0.685008824    
  -1.00001049      0.118496738      0.682318032    
 -0.960010469      0.117720686      0.679425955    
 -0.920010448      0.116129026      0.679446280    
 -0.880010426      0.113156021      0.678522706    
 -0.840010405      0.108671263      0.682673872    
 -0.800010383      0.108318828      0.683290184    
 -0.760010362      0.108312130      0.681080103    
 -0.720010340      0.107875839      0.681355715    
 -0.680010319      0.108381525      0.681002676    
 -0.640010297      0.108382575      0.678781569    
 -0.600010276      0.108762138      0.678137660    
 -0.560010254      0.108500004      0.677264810    
 -0.520010233      0.109033637      0.676820457    
 -0.480010241      0.108860455      0.675894022    
 -0.440010250      0.109393023      0.675654829    
 -0.400010258      0.109228566      0.674654424    
 -0.360010266      0.108994164      0.674069345    
 -0.320010275      0.109161079      0.673762739    
 -0.280010283      0.109557308      0.672914505    
 -0.240010291      0.108656406      0.672038496    
 -0.200010300      0.109749839      0.670342207    
 -0.160010308      0.109560974      0.671025276    
 -0.120010309      0.109858245      0.670942724    
  -8.00103098E-02  0.108978666      0.669429064    
  -4.00103107E-02  0.109759800      0.669260204    
  -1.03116035E-05  0.109057844      0.668535173    
   3.99896875E-02  0.108938426      0.668149173    
   7.99896866E-02  0.108957238      0.667700827    
  0.119989686      0.109049857      0.666639626    
  0.159989685      0.108830765      0.666499555    
  0.199989676      0.110058933      0.666481555    
  0.239989668      0.109576695      0.665917516    
  0.279989660      0.109777577      0.665487409    
  0.319989651      0.109762989      0.665620208    
  0.359989643      0.109323375      0.665738285    
  0.399989635      0.109169647      0.664762139    
  0.439989626      0.109903425      0.664128482    
  0.479989618      0.109956890      0.664721668    
  0.519989610      0.109483458      0.664016306    
  0.559989631      0.110080749      0.663763285    
  0.599989653      0.109964669      0.663431227    
  0.639989674      0.110025972      0.664046526    
  0.679989696      0.109211698      0.664610744    
  0.719989717      0.109615088      0.663216412    
  0.759989738      0.109593280      0.663348496    
  0.799989760      0.110622965      0.662244439    
  0.839989781      0.114836685      0.657217562    
  0.879989803      0.116777256      0.657285333    
  0.919989824      0.119182095      0.657651424    
  0.959989846      0.120640352      0.658639312    
  0.999989867      0.121750660      0.659639060    
   1.03998983      0.123381399      0.660927296    
   1.07998979      0.123791285      0.662007928    
   1.11998975      0.124907069      0.663067520    
   1.15998971      0.124916509      0.665017605    
   1.19998968      0.123998888      0.669391394    
   1.23998964      0.122991137      0.671589196    
   1.27998960      0.122906014      0.673703313    
   1.31998956      0.123009458      0.674749434    
   1.35998952      0.122288778      0.676365316    
   1.39998949      0.122872286      0.678172112    
   1.43998945      0.122801192      0.680401742    
   1.47998941      0.122517675      0.681286514    
   1.51998937      0.122587048      0.683245182    
   1.55998933      0.121679507      0.684512496    
   1.59998930      0.121467926      0.685173273    
   1.63998926      0.121759824      0.686782420    
   1.67998922      0.122105680      0.688307285    
   1.71998918      0.121497542      0.689594150    
   1.75998914      0.121722184      0.690428793    
   1.79998910      0.121754341      0.691339076    
   1.83998907      0.121388532      0.692166805    
   1.87998903      0.121148504      0.693363726    
   1.91998899      0.120987371      0.695215106    
   1.95998895      0.120755158      0.696070552    
   1.99998891      0.122033142      0.696996510    
   2.03998899      0.121647753      0.695956469    
   2.07998896      0.122617990      0.697478771    
   2.11998892      0.122790009      0.697460949    
   2.15998888      0.122785360      0.698415220    
   2.19998884      0.122917682      0.698827028    
   2.23998880      0.123058565      0.700811386    
   2.27998877      0.123315781      0.701067090    
   2.31998873      0.122869834      0.701498866    
   2.35998869      0.123305991      0.703262806    
   2.39998865      0.123879679      0.704457700    
   2.43998861      0.123026900      0.706090629    
   2.47998857      0.123482421      0.706196129    
   2.51998854      0.123008154      0.708072960    
   2.55998850      0.120942667      0.711021125    
   2.59998846      0.116353877      0.717907727    
   2.63998842      0.114016131      0.722214520    
   2.67998838      0.112257816      0.726702392    
   2.71998835      0.110193193      0.729573131    
   2.75998831      0.108975768      0.732355952    
   2.79998827      0.108532608      0.732275248    
   2.83998823      0.108582392      0.732832313    
   2.87998819      0.107800350      0.735597372    
   2.91998816      0.106266350      0.737781882    
   2.95998812      0.105693482      0.739325404    
   2.99998808      0.104994945      0.741328418    
   3.03998804      0.104378365      0.742863536    
   3.07998800      0.102911673      0.746098042    
   3.11998796      0.101468496      0.748329580    
