 # 2site DOS and GIPR created by main.f90 with subroutines in routines.f90
 #
# parameters: U =  8.00  t = -1.00  W = 12.00
# nbins = 600     ensemble size =    10000000
 #
 #  Frequency           DOS            GIPR
 #
 # Filling:  0.456224978    
 # Filling Error:   3.31660267E-03
  -12.0000000       7.17458141E-04   1.09069204    
  -11.9600000       7.44329882E-04   1.09767675    
  -11.9200001       7.73367821E-04   1.08860457    
  -11.8800001       8.17543245E-04   1.08875525    
  -11.8400002       8.64695467E-04   1.09626412    
  -11.8000002       8.93308606E-04   1.08211625    
  -11.7600002       9.45572567E-04   1.08518958    
  -11.7200003       1.00302242E-03   1.06086218    
  -11.6800003       1.02173071E-03   1.07347524    
  -11.6400003       1.08594808E-03   1.07356107    
  -11.6000004       1.14254060E-03   1.06238532    
  -11.5600004       1.20899605E-03   1.06525660    
  -11.5200005       1.26265385E-03   1.05206740    
  -11.4800005       1.33507664E-03   1.05334949    
  -11.4400005       1.39706524E-03   1.05446506    
  -11.4000006       1.47127896E-03   1.05714107    
  -11.3600006       1.53875211E-03   1.05119944    
  -11.3200006       1.62528269E-03   1.03930330    
  -11.2800007       1.70649914E-03   1.04819214    
  -11.2400007       1.78156304E-03   1.03883183    
  -11.2000008       1.91259687E-03   1.03427434    
  -11.1600008       2.01417855E-03   1.03521812    
  -11.1200008       2.15338194E-03   1.02509499    
  -11.0800009       2.24635634E-03   1.02928090    
  -11.0400009       2.34797876E-03   1.02541590    
  -11.0000010       2.40535848E-03   1.03244114    
  -10.9600010       2.43992335E-03   1.02516413    
  -10.9200010       2.54539168E-03   1.02895260    
  -10.8800011       2.61100684E-03   1.03764474    
  -10.8400011       2.68054474E-03   1.03735268    
  -10.8000011       2.75540468E-03   1.04369593    
  -10.7600012       2.78659398E-03   1.04095674    
  -10.7200012       2.92075332E-03   1.04598618    
  -10.6800013       2.97560985E-03   1.03793061    
  -10.6400013       3.07230372E-03   1.04087484    
  -10.6000013       3.15052434E-03   1.03784406    
  -10.5600014       3.25475377E-03   1.02974606    
  -10.5200014       3.40931187E-03   1.02275610    
  -10.4800014       3.51835671E-03   1.00868368    
  -10.4400015       3.61879263E-03   1.00480664    
  -10.4000015       3.67673859E-03   1.00292146    
  -10.3600016       3.77471815E-03   1.00392497    
  -10.3200016       3.80955753E-03   1.00466931    
  -10.2800016       3.89183406E-03  0.999874115    
  -10.2400017       3.98221193E-03   1.00227761    
  -10.2000017       4.07276908E-03   1.00000143    
  -10.1600018       4.14607069E-03  0.998810053    
  -10.1200018       4.25701682E-03  0.998624146    
  -10.0800018       4.34710970E-03  0.996227503    
  -10.0400019       4.41270415E-03  0.994708598    
  -10.0000019       4.71409317E-03  0.976486564    
  -9.96000195       5.00858761E-03  0.965804279    
  -9.92000198       5.19671384E-03  0.956664085    
  -9.88000202       5.46333101E-03  0.953718781    
  -9.84000206       5.70872519E-03  0.952367663    
  -9.80000210       5.89104323E-03  0.950383067    
  -9.76000214       6.21795980E-03  0.948526621    
  -9.72000217       6.45193085E-03  0.948188245    
  -9.68000221       6.69501163E-03  0.944998562    
  -9.64000225       7.00152619E-03  0.946714044    
  -9.60000229       7.32613727E-03  0.946743429    
  -9.56000233       7.58331316E-03  0.945380390    
  -9.52000237       7.99086783E-03  0.947806418    
  -9.48000240       8.27329699E-03  0.949096203    
  -9.44000244       8.65365751E-03  0.949658632    
  -9.40000248       8.99401587E-03  0.952182531    
  -9.36000252       9.44226608E-03  0.951779008    
  -9.32000256       9.82340705E-03  0.953400195    
  -9.28000259       1.03556840E-02  0.954514563    
  -9.24000263       1.08530344E-02  0.956366360    
  -9.20000267       1.15525769E-02  0.955923855    
  -9.16000271       1.23092979E-02  0.958504617    
  -9.12000275       1.30101135E-02  0.958664536    
  -9.08000278       1.40723661E-02  0.959094763    
  -9.04000282       1.51644628E-02  0.957024753    
  -9.00000286       1.69798378E-02  0.950324535    
  -8.96000290       1.96540132E-02  0.911993265    
  -8.92000294       2.02570856E-02  0.902608514    
  -8.88000298       2.02756822E-02  0.903397083    
  -8.84000301       2.02201679E-02  0.901611924    
  -8.80000305       2.03242432E-02  0.903406680    
  -8.76000309       2.02259906E-02  0.902699590    
  -8.72000313       2.02495437E-02  0.902934730    
  -8.68000317       2.04732846E-02  0.902588904    
  -8.64000320       2.05773767E-02  0.902304947    
  -8.60000324       2.07006056E-02  0.902464688    
  -8.56000328       2.06125546E-02  0.902503371    
  -8.52000332       2.06406694E-02  0.902164042    
  -8.48000336       2.05769278E-02  0.904400706    
  -8.44000340       2.06048619E-02  0.906447351    
  -8.40000343       2.02569384E-02  0.908078134    
  -8.36000347       2.02233773E-02  0.909135878    
  -8.32000351       2.03010011E-02  0.910178483    
  -8.28000355       1.99320782E-02  0.910796523    
  -8.24000359       2.02524662E-02  0.911107898    
  -8.20000362       2.01232526E-02  0.910108805    
  -8.16000366       2.00820882E-02  0.910780549    
  -8.12000370       1.99291483E-02  0.910183489    
  -8.08000374       1.99214667E-02  0.911753654    
  -8.04000378       1.99442115E-02  0.911650360    
  -8.00000381       1.98119488E-02  0.910327435    
  -7.96000385       1.99037902E-02  0.910505295    
  -7.92000389       1.97898708E-02  0.910207808    
  -7.88000393       1.97223015E-02  0.910381436    
  -7.84000397       1.98317505E-02  0.909990072    
  -7.80000401       1.95872057E-02  0.909432113    
  -7.76000404       1.98246520E-02  0.909628928    
  -7.72000408       1.93730779E-02  0.909133852    
  -7.68000412       1.93559323E-02  0.909708977    
  -7.64000416       1.95078421E-02  0.909615338    
  -7.60000420       1.93306692E-02  0.908780634    
  -7.56000423       1.94112808E-02  0.908331573    
  -7.52000427       1.90056358E-02  0.908498824    
  -7.48000431       1.90981179E-02  0.908793688    
  -7.44000435       1.92662627E-02  0.908842921    
  -7.40000439       1.96498577E-02  0.909703672    
  -7.36000443       2.00324040E-02  0.911631227    
  -7.32000446       2.03546770E-02  0.911739886    
  -7.28000450       2.05607340E-02  0.912601709    
  -7.24000454       2.07795557E-02  0.913312137    
  -7.20000458       2.12358236E-02  0.914279640    
  -7.16000462       2.11029220E-02  0.915114522    
  -7.12000465       2.13732924E-02  0.914246261    
  -7.08000469       2.16481499E-02  0.914565027    
  -7.04000473       2.16752365E-02  0.914624274    
  -7.00000477       2.18879879E-02  0.915641546    
  -6.96000481       2.25517619E-02  0.903641880    
  -6.92000484       2.41761133E-02  0.876638055    
  -6.88000488       2.51272414E-02  0.867698073    
  -6.84000492       2.60192174E-02  0.856250942    
  -6.80000496       2.64370907E-02  0.849297702    
  -6.76000500       2.71090921E-02  0.843553185    
  -6.72000504       2.76162811E-02  0.838538051    
  -6.68000507       2.80657262E-02  0.833806753    
  -6.64000511       2.86339186E-02  0.829625368    
  -6.60000515       2.89869010E-02  0.825513482    
  -6.56000519       2.93789953E-02  0.821900785    
  -6.52000523       2.97511872E-02  0.820612252    
  -6.48000526       2.99163572E-02  0.815868080    
  -6.44000530       3.05195395E-02  0.811487138    
  -6.40000534       3.05903386E-02  0.809439421    
  -6.36000538       3.09983008E-02  0.806787491    
  -6.32000542       3.10722515E-02  0.803831100    
  -6.28000546       3.13773900E-02  0.801766038    
  -6.24000549       3.19519863E-02  0.798961163    
  -6.20000553       3.19666117E-02  0.797463655    
  -6.16000557       3.24687101E-02  0.794099331    
  -6.12000561       3.25532854E-02  0.792287290    
  -6.08000565       3.27981487E-02  0.789040983    
  -6.04000568       3.30781974E-02  0.788197994    
  -6.00000572       3.33777666E-02  0.785073698    
  -5.96000576       3.36276665E-02  0.783080578    
  -5.92000580       3.40289958E-02  0.781609893    
  -5.88000584       3.41745727E-02  0.777767718    
  -5.84000587       3.40975933E-02  0.777354181    
  -5.80000591       3.43858637E-02  0.775409341    
  -5.76000595       3.47734801E-02  0.772816300    
  -5.72000599       3.53265703E-02  0.769871771    
  -5.68000603       3.49378064E-02  0.769317746    
  -5.64000607       3.54023688E-02  0.767654121    
  -5.60000610       3.57409753E-02  0.765067577    
  -5.56000614       3.57224457E-02  0.763394654    
  -5.52000618       3.59776691E-02  0.761206508    
  -5.48000622       3.61217633E-02  0.760373473    
  -5.44000626       3.65210548E-02  0.756523430    
  -5.40000629       3.63917872E-02  0.754209101    
  -5.36000633       3.64777595E-02  0.755354166    
  -5.32000637       3.65459472E-02  0.752562404    
  -5.28000641       3.70635763E-02  0.751094639    
  -5.24000645       3.71086076E-02  0.749205887    
  -5.20000648       3.70656438E-02  0.747956157    
  -5.16000652       3.72698456E-02  0.746050000    
  -5.12000656       3.76242846E-02  0.744062662    
  -5.08000660       3.76646593E-02  0.741004944    
  -5.04000664       3.78629826E-02  0.739845634    
  -5.00000668       3.80854420E-02  0.738571405    
  -4.96000671       3.81223373E-02  0.736776769    
  -4.92000675       3.82452495E-02  0.735312343    
  -4.88000679       3.84356529E-02  0.733422697    
  -4.84000683       3.85610163E-02  0.729575276    
  -4.80000687       3.92108932E-02  0.728839397    
  -4.76000690       3.91294137E-02  0.726596296    
  -4.72000694       3.90699469E-02  0.725664377    
  -4.68000698       3.91688049E-02  0.723801672    
  -4.64000702       3.96640114E-02  0.721458256    
  -4.60000706       3.95637415E-02  0.720259011    
  -4.56000710       3.98393609E-02  0.718473077    
  -4.52000713       4.02070992E-02  0.717079580    
  -4.48000717       4.00740355E-02  0.715509117    
  -4.44000721       4.02987041E-02  0.712781727    
  -4.40000725       4.02580909E-02  0.711155117    
  -4.36000729       4.06102054E-02  0.708874941    
  -4.32000732       4.03809398E-02  0.708667397    
  -4.28000736       4.09357399E-02  0.704794943    
  -4.24000740       4.11610976E-02  0.704130828    
  -4.20000744       4.12206799E-02  0.699812114    
  -4.16000748       4.12392057E-02  0.699706495    
  -4.12000751       4.14611623E-02  0.696766257    
  -4.08000755       4.16061655E-02  0.696233273    
  -4.04000759       4.20086049E-02  0.693477750    
  -4.00000763       4.19114642E-02  0.691526055    
  -3.96000767       4.18182425E-02  0.690163612    
  -3.92000771       4.24118377E-02  0.686371386    
  -3.88000774       4.24132496E-02  0.686034977    
  -3.84000778       4.23600674E-02  0.683895350    
  -3.80000782       4.28254306E-02  0.681732059    
  -3.76000786       4.27682325E-02  0.679969072    
  -3.72000790       4.32522409E-02  0.676879406    
  -3.68000793       4.29357924E-02  0.674042344    
  -3.64000797       4.37294580E-02  0.671894193    
  -3.60000801       4.35564518E-02  0.669290900    
  -3.56000805       4.38816063E-02  0.666440606    
  -3.52000809       4.42411862E-02  0.666366577    
  -3.48000813       4.44791615E-02  0.662784278    
  -3.44000816       4.46426645E-02  0.660139024    
  -3.40000820       4.48136367E-02  0.658801377    
  -3.36000824       4.49353307E-02  0.654957116    
  -3.32000828       4.51093502E-02  0.654042900    
  -3.28000832       4.52344567E-02  0.651219785    
  -3.24000835       4.54571210E-02  0.648480833    
  -3.20000839       4.56468016E-02  0.644972861    
  -3.16000843       4.58931141E-02  0.642565370    
  -3.12000847       4.60214280E-02  0.641341388    
  -3.08000851       4.66076434E-02  0.638060033    
  -3.04000854       4.65904064E-02  0.636121929    
  -3.00000858       4.70907278E-02  0.632717013    
  -2.96000862       4.72987592E-02  0.629831135    
  -2.92000866       4.74738665E-02  0.628829956    
  -2.88000870       4.76957634E-02  0.624717116    
  -2.84000874       4.77073975E-02  0.623429835    
  -2.80000877       4.79712114E-02  0.621126473    
  -2.76000881       4.91623618E-02  0.619549632    
  -2.72000885       5.13234548E-02  0.613264859    
  -2.68000889       5.25773615E-02  0.612099051    
  -2.64000893       5.29867485E-02  0.611804724    
  -2.60000896       5.35701290E-02  0.610484421    
  -2.56000900       5.34244254E-02  0.609441936    
  -2.52000904       5.42126372E-02  0.608996212    
  -2.48000908       5.46633378E-02  0.608973324    
  -2.44000912       5.51259108E-02  0.607833087    
  -2.40000916       5.61561622E-02  0.607035816    
  -2.36000919       5.67964353E-02  0.606324255    
  -2.32000923       5.86384572E-02  0.605528176    
  -2.28000927       5.95997795E-02  0.605071783    
  -2.24000931       6.14843331E-02  0.605113745    
  -2.20000935       6.29783571E-02  0.605044842    
  -2.16000938       6.46529123E-02  0.607008815    
  -2.12000942       6.57866821E-02  0.608322501    
  -2.08000946       6.72422051E-02  0.611348867    
  -2.04000950       6.86649382E-02  0.614869595    
  -2.00000954       6.93025291E-02  0.619602978    
  -1.96000957       7.24662542E-02  0.624087989    
  -1.92000961       7.52262622E-02  0.629411161    
  -1.88000965       7.84042403E-02  0.635170400    
  -1.84000969       8.20756853E-02  0.644220650    
  -1.80000973       8.62003118E-02  0.652713656    
  -1.76000977       8.85695145E-02  0.655812383    
  -1.72000980       9.08067226E-02  0.658506393    
  -1.68000984       9.41613838E-02  0.664405167    
  -1.64000988       9.84024182E-02  0.670992851    
  -1.60000992      0.104320228      0.682672799    
  -1.56000996      0.113901846      0.698867738    
  -1.52000999      0.120435260      0.708126545    
  -1.48001003      0.120246515      0.705043316    
  -1.44001007      0.119952232      0.702809632    
  -1.40001011      0.119218469      0.700413704    
  -1.36001015      0.118674994      0.698170781    
  -1.32001019      0.118421204      0.696075261    
  -1.28001022      0.118075080      0.693231702    
  -1.24001026      0.117551133      0.691430628    
  -1.20001030      0.117407709      0.687990189    
  -1.16001034      0.116555348      0.686461926    
  -1.12001038      0.116355568      0.682832778    
  -1.08001041      0.116435975      0.679813623    
  -1.04001045      0.115219936      0.676610112    
  -1.00001049      0.115794852      0.673046231    
 -0.960010469      0.115150109      0.669541538    
 -0.920010448      0.114048406      0.666040838    
 -0.880010426      0.112708777      0.661296070    
 -0.840010405      0.111727163      0.656983614    
 -0.800010383      0.110628702      0.652933836    
 -0.760010362      0.109032966      0.648507655    
 -0.720010340      0.106851563      0.642573118    
 -0.680010319      0.105681293      0.636791170    
 -0.640010297      0.104115151      0.628517330    
 -0.600010276      0.100870699      0.619535089    
 -0.560010254       9.75231901E-02  0.608145118    
 -0.520010233       9.06284079E-02  0.594837189    
 -0.480010241       8.16728324E-02  0.590858340    
 -0.440010250       8.03776979E-02  0.588874161    
 -0.400010258       8.05893689E-02  0.587359726    
 -0.360010266       8.08166862E-02  0.585030854    
 -0.320010275       8.11431557E-02  0.582528591    
 -0.280010283       8.10326263E-02  0.580752432    
 -0.240010291       8.16304460E-02  0.579407573    
 -0.200010300       8.16556513E-02  0.576849163    
 -0.160010308       8.17881823E-02  0.575256944    
 -0.120010309       8.26485083E-02  0.573558629    
  -8.00103098E-02   8.26047584E-02  0.572665215    
  -4.00103107E-02   8.29619914E-02  0.570595741    
  -1.03116035E-05   8.29150677E-02  0.568196833    
   3.99896875E-02   8.24735090E-02  0.566548347    
   7.99896866E-02   8.28395411E-02  0.565960407    
  0.119989686       8.34170133E-02  0.564780176    
  0.159989685       8.27719644E-02  0.563810170    
  0.199989676       8.30921978E-02  0.563193619    
  0.239989668       8.29477459E-02  0.562317371    
  0.279989660       8.30341578E-02  0.561871648    
  0.319989651       8.37519690E-02  0.561200142    
  0.359989643       8.31647441E-02  0.560930610    
  0.399989635       8.37036595E-02  0.560898602    
  0.439989626       8.40385258E-02  0.560228765    
  0.479989618       9.47203934E-02  0.566007018    
  0.519989610      0.100015365      0.579191089    
  0.559989631      0.103975244      0.589837730    
  0.599989653      0.106597394      0.597760916    
  0.639989674      0.108239822      0.603800237    
  0.679989696      0.110186130      0.610245287    
  0.719989717      0.111866862      0.614967704    
  0.759989738      0.113391332      0.618503094    
  0.799989760      0.114539534      0.622634113    
  0.839989781      0.114825942      0.626300275    
  0.879989803      0.116406210      0.630300820    
  0.919989824      0.117411442      0.633300245    
  0.959989846      0.118307449      0.635782599    
  0.999989867      0.119307920      0.638016880    
   1.03998983      0.119439408      0.641011655    
   1.07998979      0.119590014      0.643700838    
   1.11998975      0.120431282      0.645826817    
   1.15998971      0.121283069      0.648984849    
   1.19998968      0.121466421      0.651012063    
   1.23998964      0.121688917      0.653582275    
   1.27998960      0.121682085      0.656262338    
   1.31998956      0.122372672      0.658808589    
   1.35998952      0.123092853      0.661702335    
   1.39998949      0.122796156      0.663570881    
   1.43998945      0.122969612      0.666134179    
   1.47998941      0.123409301      0.668870389    
   1.51998937      0.121677332      0.673100591    
   1.55998933      0.120401502      0.678536713    
   1.59998930      0.119310081      0.681518257    
   1.63998926      0.119689077      0.684432745    
   1.67998922      0.120243192      0.687251806    
   1.71998918      0.120138079      0.690194488    
   1.75998914      0.119342275      0.693206191    
   1.79998910      0.119253077      0.694802523    
   1.83998907      0.119530991      0.697773337    
   1.87998903      0.119185753      0.699711919    
   1.91998899      0.118761428      0.703423619    
   1.95998895      0.119059213      0.705609202    
   1.99998891      0.119797111      0.705897748    
   2.03998899      0.120305389      0.707132936    
   2.07998896      0.120849483      0.708977580    
   2.11998892      0.121267647      0.709040642    
   2.15998888      0.120953366      0.712102950    
   2.19998884      0.121378481      0.714241803    
   2.23998880      0.121313907      0.715358377    
   2.27998877      0.121669047      0.719207585    
   2.31998873      0.121506132      0.720346034    
   2.35998869      0.121175967      0.721571505    
   2.39998865      0.121601991      0.724110305    
   2.43998861      0.121095732      0.725831747    
   2.47998857      0.121916719      0.728502214    
   2.51998854      0.122775301      0.728687286    
   2.55998850      0.123444892      0.729665577    
   2.59998846      0.124471471      0.731052339    
   2.63998842      0.125131205      0.732202709    
   2.67998838      0.121382728      0.730549157    
   2.71998835      0.105083458      0.707668781    
   2.75998831       9.57582593E-02  0.689832866    
   2.79998827       8.93661603E-02  0.676934302    
   2.83998823       8.56107622E-02  0.667337537    
   2.87998819       8.32539797E-02  0.662521839    
   2.91998816       8.02205428E-02  0.657083988    
   2.95998812       7.83604383E-02  0.654500902    
   2.99998808       7.28189722E-02  0.642497480    
   3.03998804       6.87203780E-02  0.632947445    
   3.07998800       6.44637272E-02  0.625636935    
   3.11998796       6.12793155E-02  0.617181361    
