 # 2site DOS and GIPR created by main.f90 with subroutines in routines.f90
 #
# parameters: U =  4.00  t = -1.00  W = 12.00
# nbins = 600     ensemble size =    10000000
 #
 # Filling:  0.389739037    
 # Filling Error:   4.38935775E-03
 #
 #  Frequency           DOS            GIPR
  -12.0000000       5.70629272E-05   1.07482874    
  -11.9600000       6.00084095E-05   1.07813728    
  -11.9200001       6.27826230E-05   1.07438111    
  -11.8800001       6.33042800E-05   1.07760417    
  -11.8400002       6.59884099E-05   1.09002090    
  -11.8000002       6.80269877E-05   1.06954753    
  -11.7600002       7.00278979E-05   1.06730509    
  -11.7200003       7.43349956E-05   1.06134045    
  -11.6800003       7.56533263E-05   1.07417023    
  -11.6400003       7.75144581E-05   1.07766926    
  -11.6000004       8.14345840E-05   1.06394744    
  -11.5600004       8.44288443E-05   1.06409514    
  -11.5200005       8.67588387E-05   1.05372500    
  -11.4800005       9.06841306E-05   1.06554711    
  -11.4400005       9.22691543E-05   1.06108129    
  -11.4000006       9.52657865E-05   1.06975627    
  -11.3600006       9.90658737E-05   1.05861628    
  -11.3200006       1.02977589E-04   1.05140018    
  -11.2800007       1.05184983E-04   1.05505812    
  -11.2400007       1.08897904E-04   1.05859292    
  -11.2000008       1.13952461E-04   1.04670727    
  -11.1600008       1.15534684E-04   1.05069733    
  -11.1200008       1.19994846E-04   1.05802500    
  -11.0800009       1.26556173E-04   1.04745901    
  -11.0400009       1.29060645E-04   1.04015267    
  -11.0000010       1.32207540E-04   1.04298568    
  -10.9600010       1.37352268E-04   1.04682827    
  -10.9200010       1.42129895E-04   1.03645682    
  -10.8800011       1.46939885E-04   1.04647756    
  -10.8400011       1.52652006E-04   1.03208888    
  -10.8000011       1.55081332E-04   1.03734648    
  -10.7600012       1.60831347E-04   1.03210139    
  -10.7200012       1.67754260E-04   1.04266226    
  -10.6800013       1.73800043E-04   1.03850245    
  -10.6400013       1.80446703E-04   1.02901781    
  -10.6000013       1.84675140E-04   1.03346896    
  -10.5600014       1.91917876E-04   1.02979338    
  -10.5200014       2.01006245E-04   1.03537619    
  -10.4800014       2.06462282E-04   1.02364886    
  -10.4400015       2.14234780E-04   1.02848005    
  -10.4000015       2.21721086E-04   1.02134883    
  -10.3600016       2.25939904E-04   1.02354980    
  -10.3200016       2.35963089E-04   1.02777481    
  -10.2800016       2.45332572E-04   1.02334702    
  -10.2400017       2.53018690E-04   1.02173984    
  -10.2000017       2.63281341E-04   1.02070069    
  -10.1600018       2.69847515E-04   1.02122700    
  -10.1200018       2.81765795E-04   1.01876581    
  -10.0800018       2.95071834E-04   1.02069318    
  -10.0400019       3.02343571E-04   1.01712441    
  -10.0000019       3.10772884E-04   1.01897967    
  -9.96000195       3.24888300E-04   1.01344216    
  -9.92000198       3.37721809E-04   1.01739633    
  -9.88000202       3.49289679E-04   1.01875043    
  -9.84000206       3.63985862E-04   1.01760137    
  -9.80000210       3.74535099E-04   1.01566350    
  -9.76000214       3.92071088E-04   1.01557469    
  -9.72000217       4.04763996E-04   1.01465654    
  -9.68000221       4.18606680E-04   1.01039529    
  -9.64000225       4.37821436E-04   1.01633906    
  -9.60000229       4.60422511E-04   1.01204598    
  -9.56000233       4.77391237E-04   1.01084888    
  -9.52000237       4.84136544E-04   1.00864899    
  -9.48000240       4.96979337E-04   1.00864816    
  -9.44000244       4.98011883E-04   1.00808585    
  -9.40000248       5.11842838E-04   1.01013339    
  -9.36000252       5.14571904E-04   1.00968981    
  -9.32000256       5.28065662E-04   1.00859916    
  -9.28000259       5.38198161E-04   1.01063275    
  -9.24000263       5.43016300E-04   1.01141584    
  -9.20000267       5.47568896E-04   1.01646888    
  -9.16000271       5.60982327E-04   1.01642132    
  -9.12000275       5.68911433E-04   1.01833200    
  -9.08000278       5.82073815E-04   1.01788509    
  -9.04000282       5.81387023E-04   1.02034569    
  -9.00000286       5.93145727E-04   1.01845920    
  -8.96000290       6.15242461E-04   1.02033138    
  -8.92000294       6.18125021E-04   1.02059066    
  -8.88000298       6.31040952E-04   1.01842916    
  -8.84000301       6.44708751E-04   1.01663804    
  -8.80000305       6.48029789E-04   1.01733172    
  -8.76000309       6.68706605E-04   1.01614976    
  -8.72000313       6.73316245E-04   1.01602507    
  -8.68000317       6.84810628E-04   1.01655483    
  -8.64000320       6.95238530E-04   1.01370943    
  -8.60000324       7.07105326E-04   1.01288342    
  -8.56000328       7.20550888E-04   1.01194632    
  -8.52000332       7.24542944E-04   1.01347828    
  -8.48000336       7.54994515E-04   1.01117003    
  -8.44000340       7.65442674E-04   1.01085341    
  -8.40000343       7.77635723E-04   1.01049006    
  -8.36000347       7.90802820E-04   1.01057565    
  -8.32000351       8.10665195E-04   1.00957119    
  -8.28000355       8.26695934E-04   1.00931609    
  -8.24000359       8.37204978E-04   1.00868165    
  -8.20000362       8.51272431E-04   1.00836766    
  -8.16000366       8.67030758E-04   1.00864089    
  -8.12000370       8.92132171E-04   1.00798845    
  -8.08000374       9.08960123E-04   1.00698626    
  -8.04000378       9.15722281E-04   1.00613737    
  -8.00000381       9.34715732E-04   1.00586760    
  -7.96000385       9.67160217E-04   1.00537539    
  -7.92000389       9.86046391E-04   1.00529242    
  -7.88000393       9.94328642E-04   1.00463748    
  -7.84000397       1.03236560E-03   1.00351369    
  -7.80000401       1.03760161E-03   1.00393474    
  -7.76000404       1.08208484E-03   1.00325131    
  -7.72000408       1.09029689E-03   1.00301075    
  -7.68000412       1.12156547E-03   1.00259364    
  -7.64000416       1.13794371E-03   1.00215149    
  -7.60000420       1.16546336E-03   1.00167656    
  -7.56000423       1.19980494E-03   1.00126648    
  -7.52000427       1.22112338E-03   1.00085950    
  -7.48000431       1.25888526E-03  0.999781966    
  -7.44000435       1.28979026E-03  0.999522209    
  -7.40000439       1.29723700E-03  0.999043763    
  -7.36000443       1.31845393E-03  0.998543620    
  -7.32000446       1.38239784E-03  0.997348428    
  -7.28000450       1.39647815E-03  0.996603787    
  -7.24000454       1.44932175E-03  0.995863855    
  -7.20000458       1.44970533E-03  0.994755507    
  -7.16000462       1.52510416E-03  0.993740618    
  -7.12000465       1.55304570E-03  0.992312074    
  -7.08000469       1.59972918E-03  0.990489781    
  -7.04000473       1.64223369E-03  0.988590181    
  -7.00000477       1.67747482E-03  0.985738695    
  -6.96000481       1.76005997E-03  0.981722176    
  -6.92000484       1.81513629E-03  0.977683902    
  -6.88000488       1.89001940E-03  0.969611347    
  -6.84000492       1.98546960E-03  0.956278384    
  -6.80000496       2.01519020E-03  0.952865243    
  -6.76000500       2.05192552E-03  0.953544438    
  -6.72000504       2.08477117E-03  0.954687178    
  -6.68000507       2.10373849E-03  0.954827607    
  -6.64000511       2.16223649E-03  0.956010342    
  -6.60000515       2.18509347E-03  0.955720901    
  -6.56000519       2.24164594E-03  0.957725883    
  -6.52000523       2.30047409E-03  0.955706358    
  -6.48000526       2.32361257E-03  0.958235621    
  -6.44000530       2.38075317E-03  0.957138717    
  -6.40000534       2.42754794E-03  0.958236516    
  -6.36000538       2.48773117E-03  0.958551586    
  -6.32000542       2.52429745E-03  0.959252298    
  -6.28000546       2.61579547E-03  0.959511518    
  -6.24000549       2.67755450E-03  0.960724354    
  -6.20000553       2.75253644E-03  0.962037385    
  -6.16000557       2.83917855E-03  0.962061524    
  -6.12000561       2.90546101E-03  0.962742269    
  -6.08000565       3.02281999E-03  0.962017357    
  -6.04000568       3.08745774E-03  0.962744176    
  -6.00000572       3.52736074E-03  0.928459048    
  -5.96000576       3.89728602E-03  0.906041801    
  -5.92000580       4.17370116E-03  0.891240954    
  -5.88000584       4.49548382E-03  0.881390035    
  -5.84000587       4.78769233E-03  0.878421903    
  -5.80000591       5.26581332E-03  0.869025230    
  -5.76000595       5.64654358E-03  0.862104893    
  -5.72000599       6.18033297E-03  0.851199567    
  -5.68000603       6.87619485E-03  0.826237321    
  -5.64000607       7.32920039E-03  0.814977288    
  -5.60000610       7.59859337E-03  0.812755883    
  -5.56000614       7.89383613E-03  0.808217645    
  -5.52000618       8.32668412E-03  0.806054175    
  -5.48000622       8.92922189E-03  0.798584640    
  -5.44000626       9.55150742E-03  0.792249084    
  -5.40000629       9.64782853E-03  0.792985201    
  -5.36000633       9.74730030E-03  0.791489720    
  -5.32000637       9.74538550E-03  0.789688945    
  -5.28000641       9.90602933E-03  0.787045002    
  -5.24000645       9.90849081E-03  0.787155926    
  -5.20000648       1.00055169E-02  0.784761608    
  -5.16000652       1.01339826E-02  0.780784845    
  -5.12000656       1.02327531E-02  0.781307220    
  -5.08000660       1.03400014E-02  0.779539227    
  -5.04000664       1.03796395E-02  0.777973652    
  -5.00000668       1.04420828E-02  0.776067615    
  -4.96000671       1.05279693E-02  0.774482429    
  -4.92000675       1.06397728E-02  0.770415187    
  -4.88000679       1.07504549E-02  0.770544708    
  -4.84000683       1.06294192E-02  0.770813763    
  -4.80000687       1.04222931E-02  0.776378453    
  -4.76000690       1.03163607E-02  0.776523590    
  -4.72000694       1.03965923E-02  0.776222646    
  -4.68000698       1.02651818E-02  0.776005208    
  -4.64000702       1.03921220E-02  0.774818420    
  -4.60000706       1.02543561E-02  0.772963226    
  -4.56000710       1.02545284E-02  0.770785570    
  -4.52000713       1.01790857E-02  0.768966377    
  -4.48000717       1.02139553E-02  0.766878784    
  -4.44000721       1.01505117E-02  0.763468683    
  -4.40000725       1.02103585E-02  0.759975910    
  -4.36000729       1.01709682E-02  0.756330311    
  -4.32000732       1.01865539E-02  0.754601061    
  -4.28000736       1.02053499E-02  0.751095951    
  -4.24000740       1.01701980E-02  0.748452365    
  -4.20000744       1.00121256E-02  0.743908763    
  -4.16000748       1.00764176E-02  0.739853144    
  -4.12000751       1.00362776E-02  0.737117589    
  -4.08000755       1.01286992E-02  0.731459856    
  -4.04000759       1.01248790E-02  0.726527572    
  -4.00000763       1.00976788E-02  0.721758902    
  -3.96000767       1.00247525E-02  0.716261804    
  -3.92000771       1.00172572E-02  0.711989105    
  -3.88000774       1.00657446E-02  0.707129717    
  -3.84000778       1.19450483E-02  0.743048131    
  -3.80000782       1.40049495E-02  0.773649395    
  -3.76000786       1.58080291E-02  0.791617393    
  -3.72000790       1.69381425E-02  0.799746454    
  -3.68000793       1.84155665E-02  0.798105001    
  -3.64000797       2.16864571E-02  0.772093117    
  -3.60000801       2.38208827E-02  0.760751188    
  -3.56000805       2.59139314E-02  0.745075464    
  -3.52000809       2.80762352E-02  0.734848142    
  -3.48000813       2.99458429E-02  0.723832011    
  -3.44000816       3.17494944E-02  0.718001187    
  -3.40000820       3.34111713E-02  0.710274696    
  -3.36000824       3.49925086E-02  0.702875197    
  -3.32000828       3.67975309E-02  0.698417068    
  -3.28000832       3.81398611E-02  0.693914175    
  -3.24000835       3.94059978E-02  0.688611090    
  -3.20000839       4.22389768E-02  0.689739347    
  -3.16000843       4.53545488E-02  0.692808807    
  -3.12000847       4.93468046E-02  0.695884347    
  -3.08000851       5.36445118E-02  0.698983848    
  -3.04000854       5.87510467E-02  0.707222998    
  -3.00000858       6.34575784E-02  0.714748442    
  -2.96000862       6.88222349E-02  0.724863648    
  -2.92000866       7.55049810E-02  0.736369789    
  -2.88000870       8.39980319E-02  0.750659764    
  -2.84000874       9.40482467E-02  0.769745767    
  -2.80000877      0.108233340      0.795333743    
  -2.76000881      0.117110915      0.802622378    
  -2.72000885      0.117632449      0.798676968    
  -2.68000889      0.119429514      0.795007646    
  -2.64000893      0.121074058      0.790126026    
  -2.60000896      0.124416895      0.780925870    
  -2.56000900      0.125677601      0.776846528    
  -2.52000904      0.125733942      0.776138067    
  -2.48000908      0.125368997      0.776372433    
  -2.44000912      0.124574818      0.774693906    
  -2.40000916      0.123684503      0.774248421    
  -2.36000919      0.122768007      0.773226500    
  -2.32000923      0.122164331      0.772523463    
  -2.28000927      0.120527416      0.770476580    
  -2.24000931      0.120306917      0.771431983    
  -2.20000935      0.119915560      0.769588411    
  -2.16000938      0.118397653      0.768866718    
  -2.12000942      0.118312262      0.768531978    
  -2.08000946      0.117450841      0.766643882    
  -2.04000950      0.115430102      0.767926872    
  -2.00000954      0.114337035      0.769472003    
  -1.96000957      0.114767909      0.765372455    
  -1.92000961      0.114701271      0.763470054    
  -1.88000965      0.114764825      0.761088669    
  -1.84000969      0.115002647      0.758870363    
  -1.80000973      0.115128152      0.755186856    
  -1.76000977      0.114609726      0.752753437    
  -1.72000980      0.115159087      0.750131786    
  -1.68000984      0.114500105      0.747897208    
  -1.64000988      0.114853777      0.744996965    
  -1.60000992      0.115004905      0.741535783    
  -1.56000996      0.115677111      0.738158107    
  -1.52000999      0.115747295      0.734123886    
  -1.48001003      0.116007917      0.730160534    
  -1.44001007      0.116934434      0.725927353    
  -1.40001011      0.117726251      0.724283993    
  -1.36001015      0.117462635      0.720175743    
  -1.32001019      0.118015081      0.716322005    
  -1.28001022      0.118757099      0.710637391    
  -1.24001026      0.119424403      0.707043171    
  -1.20001030      0.120853357      0.702646255    
  -1.16001034      0.121471681      0.698124528    
  -1.12001038      0.120423689      0.694645047    
  -1.08001041      0.119654380      0.691846013    
  -1.04001045      0.118353628      0.689110279    
  -1.00001049      0.118664250      0.688302279    
 -0.960010469      0.116532169      0.686955154    
 -0.920010448      0.115388580      0.684513927    
 -0.880010426      0.111899666      0.683761656    
 -0.840010405      0.107583322      0.688740134    
 -0.800010383      0.107962050      0.688547134    
 -0.760010362      0.107506059      0.688002884    
 -0.720010340      0.107730009      0.686061621    
 -0.680010319      0.107731029      0.685108423    
 -0.640010297      0.107952923      0.684864938    
 -0.600010276      0.108410418      0.683344185    
 -0.560010254      0.108838215      0.682085574    
 -0.520010233      0.108410761      0.680240035    
 -0.480010241      0.108378440      0.680356681    
 -0.440010250      0.108515382      0.680232823    
 -0.400010258      0.108498894      0.678416073    
 -0.360010266      0.108828932      0.677664280    
 -0.320010275      0.109079927      0.677550673    
 -0.280010283      0.108471878      0.675445676    
 -0.240010291      0.108903043      0.674944460    
 -0.200010300      0.109268881      0.675363958    
 -0.160010308      0.108970203      0.673655689    
 -0.120010309      0.108589128      0.673782885    
  -8.00103098E-02  0.109259695      0.672714829    
  -4.00103107E-02  0.109395772      0.672491431    
  -1.03116035E-05  0.109733947      0.671444416    
   3.99896875E-02  0.108722530      0.669981837    
   7.99896866E-02  0.109747529      0.670586526    
  0.119989686      0.109157108      0.669458866    
  0.159989685      0.109430052      0.668695390    
  0.199989676      0.109275714      0.668946385    
  0.239989668      0.109321043      0.668245614    
  0.279989660      0.109976172      0.667110682    
  0.319989651      0.108788908      0.667461336    
  0.359989643      0.109765939      0.666706860    
  0.399989635      0.109945230      0.665845752    
  0.439989626      0.109191135      0.666110933    
  0.479989618      0.109755434      0.666012287    
  0.519989610      0.109333977      0.665573418    
  0.559989631      0.109776668      0.665444970    
  0.599989653      0.110027373      0.665305316    
  0.639989674      0.109940313      0.665285945    
  0.679989696      0.109861806      0.664019883    
  0.719989717      0.109357856      0.663544714    
  0.759989738      0.110390432      0.664041638    
  0.799989760      0.110475361      0.662964582    
  0.839989781      0.114680693      0.657801449    
  0.879989803      0.117590517      0.657399952    
  0.919989824      0.119371705      0.657923281    
  0.959989846      0.121208809      0.659205377    
  0.999989867      0.121586047      0.659695387    
   1.03998983      0.122809775      0.661397815    
   1.07998979      0.124865599      0.662181675    
   1.11998975      0.124852560      0.663028896    
   1.15998971      0.124855600      0.665595651    
   1.19998968      0.123412758      0.669556379    
   1.23998964      0.123076834      0.671424627    
   1.27998960      0.122394323      0.673304737    
   1.31998956      0.123071276      0.675739527    
   1.35998952      0.121823795      0.677558184    
   1.39998949      0.123064861      0.678175867    
   1.43998945      0.121781655      0.680087864    
   1.47998941      0.121977299      0.681110263    
   1.51998937      0.122278608      0.683604300    
   1.55998933      0.121918567      0.684278071    
   1.59998930      0.121593237      0.685101926    
   1.63998926      0.122016855      0.686201215    
   1.67998922      0.121638656      0.687530637    
   1.71998918      0.121870942      0.688780010    
   1.75998914      0.121495180      0.688778758    
   1.79998910      0.121673211      0.690201581    
   1.83998907      0.121204033      0.692138195    
   1.87998903      0.121773608      0.692075491    
   1.91998899      0.121859662      0.693615496    
   1.95998895      0.121311426      0.694802463    
   1.99998891      0.121369742      0.694774508    
   2.03998899      0.121477753      0.694638371    
   2.07998896      0.122325182      0.695130229    
   2.11998892      0.122718364      0.696162879    
   2.15998888      0.122984849      0.696516454    
   2.19998884      0.123245746      0.697724581    
   2.23998880      0.123231195      0.698429704    
   2.27998877      0.122871384      0.699490309    
   2.31998873      0.123278774      0.700582147    
   2.35998869      0.123045154      0.701651156    
   2.39998865      0.122930564      0.702672601    
   2.43998861      0.123284169      0.703635454    
   2.47998857      0.124072321      0.704290628    
   2.51998854      0.123327225      0.706499219    
   2.55998850      0.122285821      0.709607363    
   2.59998846      0.116906501      0.715454221    
   2.63998842      0.114182673      0.719830871    
   2.67998838      0.112892635      0.723032832    
   2.71998835      0.110726677      0.726359487    
   2.75998831      0.109308347      0.728491902    
   2.79998827      0.109076761      0.729214191    
   2.83998823      0.108880974      0.730495393    
   2.87998819      0.107846446      0.731981874    
   2.91998816      0.107200995      0.733294427    
   2.95998812      0.106652908      0.735795021    
   2.99998808      0.105486579      0.737325191    
   3.03998804      0.104802966      0.738991082    
   3.07998800      0.103155628      0.741421819    
   3.11998796      0.102335230      0.743086100    
