 # 2site DOS and GIPR created by main.f90 with subroutines in routines.f90
 #
# parameters: U =  8.00  t = -1.00  W = 12.00
# nbins = 600     ensemble size =    10000000
 #
 #  Frequency           DOS            GIPR
 #
 # Filling:  0.374118894    
 # Filling Error:   2.73706438E-03
  -12.0000000       8.81908272E-05   1.17262352    
  -11.9600000       9.47160879E-05   1.14087176    
  -11.9200001       9.95542359E-05   1.18798769    
  -11.8800001       1.08155429E-04   1.13824296    
  -11.8400002       1.17279968E-04   1.14063168    
  -11.8000002       1.18555152E-04   1.15652788    
  -11.7600002       1.31676919E-04   1.12094247    
  -11.7200003       1.38500240E-04   1.15101480    
  -11.6800003       1.47055194E-04   1.14050388    
  -11.6400003       1.54397509E-04   1.14338756    
  -11.6000004       1.65114165E-04   1.12376690    
  -11.5600004       1.76843067E-04   1.14249742    
  -11.5200005       1.79299313E-04   1.13442588    
  -11.4800005       1.89157290E-04   1.12277031    
  -11.4400005       1.98513750E-04   1.12267733    
  -11.4000006       2.09083213E-04   1.11115849    
  -11.3600006       2.20773756E-04   1.10559165    
  -11.3200006       2.26704491E-04   1.10470843    
  -11.2800007       2.33335668E-04   1.09984207    
  -11.2400007       2.42450536E-04   1.10389626    
  -11.2000008       2.52177706E-04   1.09806263    
  -11.1600008       2.61854730E-04   1.08134985    
  -11.1200008       2.80138571E-04   1.10763466    
  -11.0800009       2.84794456E-04   1.08791518    
  -11.0400009       3.02165310E-04   1.10357404    
  -11.0000010       3.22980894E-04   1.08586872    
  -10.9600010       3.37091275E-04   1.08012605    
  -10.9200010       3.50200571E-04   1.08810937    
  -10.8800011       3.75208765E-04   1.07824719    
  -10.8400011       3.87579639E-04   1.09059668    
  -10.8000011       4.06393898E-04   1.06537592    
  -10.7600012       4.36209317E-04   1.07910764    
  -10.7200012       4.55703645E-04   1.05485260    
  -10.6800013       4.78323112E-04   1.06344032    
  -10.6400013       4.96973167E-04   1.06205618    
  -10.6000013       5.22910734E-04   1.05095625    
  -10.5600014       5.43378235E-04   1.05775952    
  -10.5200014       5.91046759E-04   1.04356873    
  -10.4800014       6.15162600E-04   1.05117118    
  -10.4400015       6.44078944E-04   1.04136264    
  -10.4000015       6.82506012E-04   1.04785264    
  -10.3600016       7.28206709E-04   1.04612374    
  -10.3200016       7.71189923E-04   1.04540157    
  -10.2800016       8.20753048E-04   1.04391789    
  -10.2400017       8.55741207E-04   1.03609216    
  -10.2000017       9.10063449E-04   1.04291582    
  -10.1600018       9.64963518E-04   1.03542840    
  -10.1200018       1.03118189E-03   1.03348744    
  -10.0800018       1.11387204E-03   1.02880859    
  -10.0400019       1.17967918E-03   1.02535760    
  -10.0000019       1.25323958E-03   1.02037120    
  -9.96000195       1.33152585E-03   1.02085006    
  -9.92000198       1.41293253E-03   1.02200580    
  -9.88000202       1.53147383E-03   1.01883686    
  -9.84000206       1.62786990E-03   1.01496696    
  -9.80000210       1.74055551E-03   1.01651514    
  -9.76000214       1.89552980E-03   1.01087677    
  -9.72000217       2.02130340E-03   1.00898874    
  -9.68000221       2.29746592E-03  0.994245529    
  -9.64000225       2.54915911E-03  0.969045579    
  -9.60000229       2.66258745E-03  0.971300960    
  -9.56000233       2.81286449E-03  0.967612982    
  -9.52000237       2.97088362E-03  0.973240435    
  -9.48000240       3.04446090E-03  0.971584499    
  -9.44000244       3.22584063E-03  0.977285445    
  -9.40000248       3.45077110E-03  0.976089954    
  -9.36000252       3.72973015E-03  0.978091121    
  -9.32000256       3.98194976E-03  0.980532408    
  -9.28000259       4.31338511E-03  0.981936812    
  -9.24000263       4.60913172E-03  0.982792556    
  -9.20000267       5.12419781E-03  0.980188251    
  -9.16000271       5.74638508E-03  0.973771393    
  -9.12000275       6.60702307E-03  0.973597169    
  -9.08000278       7.94509891E-03  0.973444760    
  -9.04000282       1.25741716E-02  0.969863892    
  -9.00000286       1.49428630E-02  0.960162759    
  -8.96000290       1.76662169E-02  0.918260634    
  -8.92000294       1.81295518E-02  0.907644570    
  -8.88000298       1.81622393E-02  0.905406475    
  -8.84000301       1.83309186E-02  0.904182374    
  -8.80000305       1.81931946E-02  0.904522300    
  -8.76000309       1.84533633E-02  0.903647244    
  -8.72000313       1.81784146E-02  0.905025959    
  -8.68000317       1.83095224E-02  0.903150439    
  -8.64000320       1.83752943E-02  0.902868807    
  -8.60000324       1.82316825E-02  0.903463960    
  -8.56000328       1.84928700E-02  0.901714861    
  -8.52000332       1.84298344E-02  0.901702344    
  -8.48000336       1.81735847E-02  0.903844893    
  -8.44000340       1.80180706E-02  0.907602012    
  -8.40000343       1.80395562E-02  0.909317017    
  -8.36000347       1.80242267E-02  0.910159469    
  -8.32000351       1.79140344E-02  0.910954833    
  -8.28000355       1.77271888E-02  0.911061764    
  -8.24000359       1.77706722E-02  0.912316442    
  -8.20000362       1.77304745E-02  0.911431730    
  -8.16000366       1.75213125E-02  0.912245274    
  -8.12000370       1.75263509E-02  0.911917329    
  -8.08000374       1.73965562E-02  0.912669063    
  -8.04000378       1.73893906E-02  0.911272049    
  -8.00000381       1.74178854E-02  0.910085797    
  -7.96000385       1.72094963E-02  0.911186218    
  -7.92000389       1.72150433E-02  0.910643041    
  -7.88000393       1.71040092E-02  0.910294831    
  -7.84000397       1.69387311E-02  0.909130275    
  -7.80000401       1.69364866E-02  0.909306705    
  -7.76000404       1.66412983E-02  0.908203423    
  -7.72000408       1.68361198E-02  0.906878054    
  -7.68000412       1.65817551E-02  0.906926990    
  -7.64000416       1.73532758E-02  0.910029888    
  -7.60000420       1.81658287E-02  0.914231479    
  -7.56000423       1.89100727E-02  0.917246461    
  -7.52000427       1.97524391E-02  0.918441653    
  -7.48000431       2.00775415E-02  0.919524968    
  -7.44000435       2.05786675E-02  0.921600878    
  -7.40000439       2.11229511E-02  0.921716750    
  -7.36000443       2.12905332E-02  0.922310472    
  -7.32000446       2.15216056E-02  0.923492432    
  -7.28000450       2.16664877E-02  0.923766196    
  -7.24000454       2.22411491E-02  0.924462855    
  -7.20000458       2.21313294E-02  0.924930513    
  -7.16000462       2.22443398E-02  0.925410867    
  -7.12000465       2.26631276E-02  0.925925910    
  -7.08000469       2.28390712E-02  0.925927997    
  -7.04000473       2.30097678E-02  0.926187158    
  -7.00000477       2.29698587E-02  0.925345778    
  -6.96000481       2.38213446E-02  0.914143503    
  -6.92000484       2.53138989E-02  0.890561700    
  -6.88000488       2.63080560E-02  0.878600776    
  -6.84000492       2.70312317E-02  0.867089570    
  -6.80000496       2.75758598E-02  0.860700190    
  -6.76000500       2.81611122E-02  0.854532778    
  -6.72000504       2.85873283E-02  0.850496888    
  -6.68000507       2.91652698E-02  0.845067024    
  -6.64000511       2.93379519E-02  0.841957450    
  -6.60000515       2.98090484E-02  0.838908613    
  -6.56000519       3.00168265E-02  0.833224893    
  -6.52000523       3.09584085E-02  0.828654170    
  -6.48000526       3.10300421E-02  0.826437294    
  -6.44000530       3.14126126E-02  0.823439538    
  -6.40000534       3.15853693E-02  0.820992827    
  -6.36000538       3.16996202E-02  0.819315732    
  -6.32000542       3.24588604E-02  0.812028170    
  -6.28000546       3.23897637E-02  0.811860263    
  -6.24000549       3.28103192E-02  0.808816075    
  -6.20000553       3.31473053E-02  0.807892203    
  -6.16000557       3.33394408E-02  0.806585371    
  -6.12000561       3.34807895E-02  0.802756727    
  -6.08000565       3.37353460E-02  0.800175190    
  -6.04000568       3.38725336E-02  0.799683630    
  -6.00000572       3.42448801E-02  0.796332300    
  -5.96000576       3.46836410E-02  0.794237673    
  -5.92000580       3.46807949E-02  0.792603016    
  -5.88000584       3.48489694E-02  0.789024532    
  -5.84000587       3.50469872E-02  0.790962815    
  -5.80000591       3.54898199E-02  0.786710322    
  -5.76000595       3.53872441E-02  0.786279857    
  -5.72000599       3.55880931E-02  0.783730984    
  -5.68000603       3.57494876E-02  0.780942500    
  -5.64000607       3.62185352E-02  0.780845582    
  -5.60000610       3.62710245E-02  0.777799487    
  -5.56000614       3.60785164E-02  0.776979029    
  -5.52000618       3.64960618E-02  0.774557352    
  -5.48000622       3.67835239E-02  0.771735489    
  -5.44000626       3.67264822E-02  0.770720959    
  -5.40000629       3.70381214E-02  0.770370662    
  -5.36000633       3.70805115E-02  0.767843246    
  -5.32000637       3.73892561E-02  0.766145885    
  -5.28000641       3.75481695E-02  0.765235960    
  -5.24000645       3.77138220E-02  0.763862133    
  -5.20000648       3.79681438E-02  0.762082994    
  -5.16000652       3.80063578E-02  0.760400176    
  -5.12000656       3.80265377E-02  0.759549141    
  -5.08000660       3.81394848E-02  0.758460343    
  -5.04000664       3.79863940E-02  0.756515801    
  -5.00000668       3.85244898E-02  0.754128397    
  -4.96000671       3.87685075E-02  0.752596438    
  -4.92000675       3.85437682E-02  0.752203226    
  -4.88000679       3.87166478E-02  0.751739323    
  -4.84000683       3.93564142E-02  0.750316203    
  -4.80000687       3.92361544E-02  0.749107599    
  -4.76000690       3.93879041E-02  0.745863140    
  -4.72000694       3.94466259E-02  0.741613030    
  -4.68000698       3.93716730E-02  0.742969930    
  -4.64000702       3.99505571E-02  0.741252601    
  -4.60000706       3.96412089E-02  0.740701199    
  -4.56000710       4.00332771E-02  0.739586949    
  -4.52000713       4.01879214E-02  0.736764967    
  -4.48000717       4.02263217E-02  0.735345006    
  -4.44000721       4.03521731E-02  0.734273374    
  -4.40000725       4.03858945E-02  0.732796431    
  -4.36000729       4.08015028E-02  0.731843889    
  -4.32000732       4.07075956E-02  0.730042458    
  -4.28000736       4.09547612E-02  0.727317095    
  -4.24000740       4.13757637E-02  0.726982653    
  -4.20000744       4.10315320E-02  0.724185169    
  -4.16000748       4.14234437E-02  0.725745201    
  -4.12000751       4.15185988E-02  0.721961141    
  -4.08000755       4.16652709E-02  0.720577538    
  -4.04000759       4.17728722E-02  0.719051301    
  -4.00000763       4.17753048E-02  0.717891634    
  -3.96000767       4.17022891E-02  0.716070056    
  -3.92000771       4.19311486E-02  0.715603292    
  -3.88000774       4.20887694E-02  0.711697936    
  -3.84000778       4.25513126E-02  0.710569382    
  -3.80000782       4.24101911E-02  0.708304644    
  -3.76000786       4.25692238E-02  0.707920015    
  -3.72000790       4.28678021E-02  0.705267489    
  -3.68000793       4.27260771E-02  0.704085946    
  -3.64000797       4.29024920E-02  0.703652680    
  -3.60000801       4.34473529E-02  0.701032400    
  -3.56000805       4.34481874E-02  0.700971246    
  -3.52000809       4.31352034E-02  0.698674917    
  -3.48000813       4.35348377E-02  0.696312487    
  -3.44000816       4.36986238E-02  0.694171488    
  -3.40000820       4.41140793E-02  0.693435669    
  -3.36000824       4.36799638E-02  0.690861702    
  -3.32000828       4.40061726E-02  0.690445185    
  -3.28000832       4.42292504E-02  0.687999785    
  -3.24000835       4.44520041E-02  0.686498761    
  -3.20000839       4.43951115E-02  0.683558702    
  -3.16000843       4.46640365E-02  0.684338689    
  -3.12000847       4.47067879E-02  0.683117747    
  -3.08000851       4.48686033E-02  0.678185225    
  -3.04000854       4.47934270E-02  0.679076254    
  -3.00000858       4.52062897E-02  0.675787747    
  -2.96000862       4.53083478E-02  0.674810529    
  -2.92000866       4.55098264E-02  0.672037899    
  -2.88000870       4.59120609E-02  0.670499980    
  -2.84000874       4.57762070E-02  0.669989049    
  -2.80000877       4.59798723E-02  0.668341875    
  -2.76000881       4.61610407E-02  0.665799439    
  -2.72000885       4.62751351E-02  0.663771868    
  -2.68000889       4.65598367E-02  0.662083030    
  -2.64000893       4.69211526E-02  0.660085142    
  -2.60000896       4.68846783E-02  0.659559906    
  -2.56000900       4.71169427E-02  0.657375395    
  -2.52000904       4.72358465E-02  0.654351652    
  -2.48000908       4.72581722E-02  0.653410375    
  -2.44000912       4.72825654E-02  0.652831674    
  -2.40000916       4.79180478E-02  0.650395453    
  -2.36000919       4.78208959E-02  0.648773015    
  -2.32000923       4.83884178E-02  0.647469521    
  -2.28000927       4.82860021E-02  0.645343900    
  -2.24000931       4.87088263E-02  0.643919766    
  -2.20000935       4.87642922E-02  0.642730713    
  -2.16000938       4.87973243E-02  0.640338659    
  -2.12000942       4.84579988E-02  0.639455318    
  -2.08000946       4.92277443E-02  0.637794971    
  -2.04000950       4.93624769E-02  0.638419509    
  -2.00000954       4.91027310E-02  0.637790024    
  -1.96000957       4.90723997E-02  0.636981487    
  -1.92000961       4.98872139E-02  0.634523928    
  -1.88000965       5.07928953E-02  0.632520676    
  -1.84000969       5.10231294E-02  0.631387174    
  -1.80000973       5.18527701E-02  0.629289210    
  -1.76000977       5.21610603E-02  0.627996087    
  -1.72000980       5.28775677E-02  0.625491261    
  -1.68000984       5.35084009E-02  0.623589694    
  -1.64000988       5.40908389E-02  0.621762872    
  -1.60000992       5.46705648E-02  0.620617509    
  -1.56000996       5.63394129E-02  0.617176473    
  -1.52000999       5.70965409E-02  0.614150167    
  -1.48001003       5.69578782E-02  0.613172472    
  -1.44001007       5.77136986E-02  0.612281561    
  -1.40001011       5.75910695E-02  0.610655844    
  -1.36001015       5.88216484E-02  0.609843910    
  -1.32001019       5.92515543E-02  0.609454036    
  -1.28001022       5.94842769E-02  0.608398855    
  -1.24001026       5.99250793E-02  0.609137654    
  -1.20001030       6.14453182E-02  0.607160330    
  -1.16001034       6.13933280E-02  0.606528699    
  -1.12001038       6.24054521E-02  0.606668532    
  -1.08001041       6.31401911E-02  0.606733143    
  -1.04001045       6.49540797E-02  0.606526136    
  -1.00001049       6.62324354E-02  0.607008815    
 -0.960010469       6.82200119E-02  0.607525647    
 -0.920010448       6.93394765E-02  0.609200180    
 -0.880010426       7.07927346E-02  0.611511230    
 -0.840010405       7.26729557E-02  0.612395823    
 -0.800010383       7.49053881E-02  0.616405547    
 -0.760010362       7.67768472E-02  0.619741440    
 -0.720010340       7.96211064E-02  0.625240743    
 -0.680010319       8.29713866E-02  0.630730033    
 -0.640010297       8.70047808E-02  0.638722479    
 -0.600010276       9.12113041E-02  0.646924376    
 -0.560010254       9.34441164E-02  0.650254011    
 -0.520010233       8.99406075E-02  0.644528747    
 -0.480010241       7.99620375E-02  0.646041214    
 -0.440010250       7.91512281E-02  0.644525886    
 -0.400010258       7.94034675E-02  0.643450856    
 -0.360010266       7.89241269E-02  0.641958177    
 -0.320010275       7.86348060E-02  0.639480650    
 -0.280010283       7.84528330E-02  0.636930406    
 -0.240010291       7.85353556E-02  0.635995209    
 -0.200010300       7.86942542E-02  0.634172440    
 -0.160010308       7.87376091E-02  0.631958902    
 -0.120010309       7.91645423E-02  0.630614042    
  -8.00103098E-02   7.87796900E-02  0.628295541    
  -4.00103107E-02   7.87529126E-02  0.626018643    
  -1.03116035E-05   6.84266090E-02  0.633148134    
   3.99896875E-02   6.91878721E-02  0.630602837    
   7.99896866E-02   7.07098842E-02  0.628391981    
  0.119989686       7.18106329E-02  0.625558019    
  0.159989685       7.23878741E-02  0.623148680    
  0.199989676       7.35677332E-02  0.621194422    
  0.239989668       7.37603977E-02  0.618232727    
  0.279989660       7.50082433E-02  0.615938067    
  0.319989651       7.58933350E-02  0.612876296    
  0.359989643       7.62551203E-02  0.611184239    
  0.399989635       7.70743117E-02  0.608320117    
  0.439989626       7.81850591E-02  0.604898036    
  0.479989618       8.79687965E-02  0.604205012    
  0.519989610       9.41844732E-02  0.613756776    
  0.559989631       9.84329432E-02  0.621883392    
  0.599989653      0.101406023      0.626397848    
  0.639989674      0.103812948      0.631598115    
  0.679989696      0.106081948      0.635217607    
  0.719989717      0.107652999      0.637761116    
  0.759989738      0.108884335      0.640206814    
  0.799989760      0.110031269      0.641808450    
  0.839989781      0.112196483      0.643398881    
  0.879989803      0.113527022      0.644305825    
  0.919989824      0.114561826      0.645214677    
  0.959989846      0.115243942      0.645872355    
  0.999989867      0.116515346      0.647228241    
   1.03998983      0.117747270      0.646899045    
   1.07998979      0.118832745      0.648329794    
   1.11998975      0.119099759      0.648473680    
   1.15998971      0.120305575      0.648409903    
   1.19998968      0.121159621      0.649510443    
   1.23998964      0.121880084      0.650147915    
   1.27998960      0.123256654      0.650910854    
   1.31998956      0.122822419      0.651542783    
   1.35998952      0.123846233      0.651486993    
   1.39998949      0.124193966      0.652702332    
   1.43998945      0.125061378      0.652813971    
   1.47998941      0.125252306      0.653075755    
   1.51998937      0.124508575      0.656312704    
   1.55998933      0.124249771      0.657722533    
   1.59998930      0.123506889      0.659768522    
   1.63998926      0.122541852      0.660750806    
   1.67998922      0.122524582      0.663075566    
   1.71998918      0.122397117      0.663822711    
   1.75998914      0.121906877      0.665158808    
   1.79998910      0.122098036      0.667220771    
   1.83998907      0.122075357      0.668076396    
   1.87998903      0.121771358      0.668560266    
   1.91998899      0.121822432      0.670409203    
   1.95998895      0.121666357      0.671634972    
   1.99998891      0.122717187      0.671392858    
   2.03998899      0.123915344      0.673345685    
   2.07998896      0.123962410      0.673222125    
   2.11998892      0.123966217      0.674342752    
   2.15998888      0.124020182      0.675537944    
   2.19998884      0.124690160      0.676682651    
   2.23998880      0.124688298      0.678427219    
   2.27998877      0.124616772      0.679538071    
   2.31998873      0.124887511      0.680889606    
   2.35998869      0.124855086      0.682091117    
   2.39998865      0.125540137      0.685927987    
   2.43998861      0.125585869      0.686768413    
   2.47998857      0.125312656      0.689021051    
   2.51998854      0.124816410      0.691111803    
   2.55998850      0.125263974      0.693352401    
   2.59998846      0.125633195      0.694901764    
   2.63998842      0.125471547      0.696792483    
   2.67998838      0.124212779      0.700563729    
   2.71998835      0.119324267      0.708347857    
   2.75998831      0.116525695      0.713438570    
   2.79998827      0.115433477      0.716988444    
   2.83998823      0.116834946      0.716366947    
   2.87998819      0.116425559      0.719249904    
   2.91998816      0.115828983      0.720999897    
   2.95998812      0.115819804      0.723486125    
   2.99998808      0.115037479      0.725322664    
   3.03998804      0.115614913      0.728019476    
   3.07998800      0.114816718      0.729937732    
   3.11998796      0.114326656      0.733468652    
